time(hour)	isotherm(m)
0.00000000 0.01677
0.08333333 0.05001
0.16666667 0.08253
0.25000000 0.11406
0.33333333 0.14436
0.41666667 0.17317
0.50000000 0.20028
0.58333333 0.22547
0.66666667 0.24856
0.75000000 0.26935
0.83333333 0.28772
0.91666667 0.30351
1.00000000 0.31680
1.08333333 0.32701
1.16666667 0.33439
1.25000000 0.33942
1.33333333 0.34107
1.41666667 0.33936
1.50000000 0.33483
1.58333333 0.32806
1.66666667 0.31911
1.75000000 0.30825
1.83333333 0.29563
1.91666667 0.28140
2.00000000 0.26562
2.08333333 0.24778
2.16666667 0.22856
2.25000000 0.20766
2.33333333 0.18477
2.41666667 0.16054
2.50000000 0.13578
2.58333333 0.11071
2.66666667 0.08494
2.75000000 0.05887
2.83333333 0.03272
2.91666667 0.00653
3.00000000 -0.01948
3.08333333 -0.04509
3.16666667 -0.07008
3.25000000 -0.09427
3.33333333 -0.11812
3.41666667 -0.14145
3.50000000 -0.16426
3.58333333 -0.18637
3.66666667 -0.20672
3.75000000 -0.22517
3.83333333 -0.24240
3.91666667 -0.25829
4.00000000 -0.27243
4.08333333 -0.28472
4.16666667 -0.29451
4.25000000 -0.30177
4.33333333 -0.30644
4.41666667 -0.30851
4.50000000 -0.30800
4.58333333 -0.30492
4.66666667 -0.29973
4.75000000 -0.29249
4.83333333 -0.28248
4.91666667 -0.26924
5.00000000 -0.25334
5.08333333 -0.23547
5.16666667 -0.21579
5.25000000 -0.19450
5.33333333 -0.17102
5.41666667 -0.14568
5.50000000 -0.11936
5.58333333 -0.09130
5.66666667 -0.06274
5.75000000 -0.03391
5.83333333 -0.00420
5.91666667 0.02528
6.00000000 0.05422
6.08333333 0.08158
6.16666667 0.10719
6.25000000 0.13168
6.33333333 0.15473
6.41666667 0.17629
6.50000000 0.19628
6.58333333 0.21446
6.66666667 0.23069
6.75000000 0.24473
6.83333333 0.25560
6.91666667 0.26275
7.00000000 0.26664
7.08333333 0.26785
7.16666667 0.26639
7.25000000 0.26230
7.33333333 0.25606
7.41666667 0.24774
7.50000000 0.23743
7.58333333 0.22466
7.66666667 0.20930
7.75000000 0.19233
7.83333333 0.17417
7.91666667 0.15473
8.00000000 0.13391
8.08333333 0.11107
8.16666667 0.08668
8.25000000 0.06082
8.33333333 0.03372
8.41666667 0.00658
8.50000000 -0.02054
8.58333333 -0.04741
8.66666667 -0.07365
8.75000000 -0.09999
8.83333333 -0.12624
8.91666667 -0.15174
9.00000000 -0.17630
9.08333333 -0.19916
9.16666667 -0.22015
9.25000000 -0.23971
9.33333333 -0.25709
9.41666667 -0.27158
9.50000000 -0.28367
9.58333333 -0.29388
9.66666667 -0.30213
9.75000000 -0.30779
9.83333333 -0.31084
9.91666667 -0.31240
10.00000000 -0.31248
10.08333333 -0.31007
10.16666667 -0.30523
10.25000000 -0.29776
10.33333333 -0.28776
10.41666667 -0.27635
10.50000000 -0.26274
10.58333333 -0.24616
10.66666667 -0.22767
10.75000000 -0.20746
10.83333333 -0.18570
10.91666667 -0.16181
11.00000000 -0.13678
11.08333333 -0.11163
11.16666667 -0.08499
11.25000000 -0.05710
11.33333333 -0.02922
11.41666667 -0.00159
11.50000000 0.02581
11.58333333 0.05274
11.66666667 0.07898
11.75000000 0.10433
11.83333333 0.12840
11.91666667 0.15102
12.00000000 0.17159
12.08333333 0.18994
12.16666667 0.20662
12.25000000 0.22219
12.33333333 0.23644
12.41666667 0.24858
12.50000000 0.25855
12.58333333 0.26626
12.66666667 0.27169
12.75000000 0.27480
12.83333333 0.27559
12.91666667 0.27408
13.00000000 0.27029
13.08333333 0.26429
13.16666667 0.25613
13.25000000 0.24575
13.33333333 0.23265
13.41666667 0.21714
13.50000000 0.19996
13.58333333 0.18203
13.66666667 0.16351
13.75000000 0.14379
13.83333333 0.12329
13.91666667 0.10270
14.00000000 0.08197
14.08333333 0.06075
14.16666667 0.03921
14.25000000 0.01754
14.33333333 -0.00407
14.41666667 -0.02573
14.50000000 -0.04774
14.58333333 -0.06963
14.66666667 -0.09075
14.75000000 -0.11091
14.83333333 -0.12996
14.91666667 -0.14776
15.00000000 -0.16416
15.08333333 -0.17980
15.16666667 -0.19447
15.25000000 -0.20826
15.33333333 -0.22027
15.41666667 -0.22947
15.50000000 -0.23753
15.58333333 -0.24441
15.66666667 -0.24832
15.75000000 -0.24926
15.83333333 -0.24752
15.91666667 -0.24313
16.00000000 -0.23676
16.08333333 -0.22848
16.16666667 -0.21771
16.25000000 -0.20458
16.33333333 -0.18985
16.41666667 -0.17368
16.50000000 -0.15585
16.58333333 -0.13651
16.66666667 -0.11621
16.75000000 -0.09512
16.83333333 -0.07401
16.91666667 -0.05305
17.00000000 -0.03183
17.08333333 -0.01054
17.16666667 0.01064
17.25000000 0.03154
17.33333333 0.05198
17.41666667 0.07181
17.50000000 0.09085
17.58333333 0.10931
17.66666667 0.12705
17.75000000 0.14321
17.83333333 0.15803
17.91666667 0.17174
18.00000000 0.18412
18.08333333 0.19508
18.16666667 0.20488
18.25000000 0.21346
18.33333333 0.22017
18.41666667 0.22498
18.50000000 0.22788
18.58333333 0.22922
18.66666667 0.22900
18.75000000 0.22738
18.83333333 0.22437
18.91666667 0.21952
19.00000000 0.21357
19.08333333 0.20590
19.16666667 0.19588
19.25000000 0.18433
19.33333333 0.17112
19.41666667 0.15661
19.50000000 0.14115
19.58333333 0.12443
19.66666667 0.10682
19.75000000 0.08870
19.83333333 0.07070
19.91666667 0.05297
20.00000000 0.03564
20.08333333 0.01886
20.16666667 0.00250
20.25000000 -0.01330
20.33333333 -0.02884
20.41666667 -0.04393
20.50000000 -0.05851
20.58333333 -0.07298
20.66666667 -0.08713
20.75000000 -0.10043
20.83333333 -0.11277
20.91666667 -0.12406
21.00000000 -0.13421
21.08333333 -0.14315
21.16666667 -0.15081
21.25000000 -0.15717
21.33333333 -0.16219
21.41666667 -0.16578
21.50000000 -0.16793
21.58333333 -0.16867
21.66666667 -0.16799
21.75000000 -0.16591
21.83333333 -0.16247
21.91666667 -0.15771
22.00000000 -0.15168
22.08333333 -0.14440
22.16666667 -0.13599
22.25000000 -0.12655
22.33333333 -0.11614
22.41666667 -0.10486
22.50000000 -0.09349
22.58333333 -0.08224
22.66666667 -0.07051
22.75000000 -0.05829
22.83333333 -0.04570
22.91666667 -0.03285
23.00000000 -0.02097
23.08333333 -0.01018
23.16666667 0.00060
23.25000000 0.01161
23.33333333 0.02243
23.41666667 0.03296
23.50000000 0.04345
23.58333333 0.05315
23.66666667 0.06232
23.75000000 0.07122
23.83333333 0.07944
23.91666667 0.08693
24.00000000 0.09443
24.08333333 0.10199
24.16666667 0.10873
24.25000000 0.11450
24.33333333 0.11926
24.41666667 0.12379
24.50000000 0.12805
24.58333333 0.13120
24.66666667 0.13330
24.75000000 0.13498
24.83333333 0.13603
24.91666667 0.13580
25.00000000 0.13444
25.08333333 0.13139
25.16666667 0.12670
25.25000000 0.12099
25.33333333 0.11433
25.41666667 0.10677
25.50000000 0.09840
25.58333333 0.08934
25.66666667 0.07969
25.75000000 0.06946
25.83333333 0.05875
25.91666667 0.04764
26.00000000 0.03624
26.08333333 0.02464
26.16666667 0.01294
26.25000000 0.00124
26.33333333 -0.00972
26.41666667 -0.01984
26.50000000 -0.02970
26.58333333 -0.03923
26.66666667 -0.04834
26.75000000 -0.05678
26.83333333 -0.06449
26.91666667 -0.07159
27.00000000 -0.07803
27.08333333 -0.08376
27.16666667 -0.08873
27.25000000 -0.09267
27.33333333 -0.09553
27.41666667 -0.09784
27.50000000 -0.09956
27.58333333 -0.10044
27.66666667 -0.10047
27.75000000 -0.09966
27.83333333 -0.09804
27.91666667 -0.09635
28.00000000 -0.09471
28.08333333 -0.09238
28.16666667 -0.08931
28.25000000 -0.08552
28.33333333 -0.08111
28.41666667 -0.07614
28.50000000 -0.07057
28.58333333 -0.06447
28.66666667 -0.05789
28.75000000 -0.05088
28.83333333 -0.04357
28.91666667 -0.03600
29.00000000 -0.02821
29.08333333 -0.01973
29.16666667 -0.01064
29.25000000 -0.00145
29.33333333 0.00779
29.41666667 0.01687
29.50000000 0.02587
29.58333333 0.03457
29.66666667 0.04291
29.75000000 0.05095
29.83333333 0.05849
29.91666667 0.06547
30.00000000 0.07171
30.08333333 0.07715
30.16666667 0.08132
30.25000000 0.08420
30.33333333 0.08635
30.41666667 0.08776
30.50000000 0.08838
30.58333333 0.08820
30.66666667 0.08644
30.75000000 0.08311
30.83333333 0.07912
30.91666667 0.07433
31.00000000 0.06879
31.08333333 0.06177
31.16666667 0.05332
31.25000000 0.04450
31.33333333 0.03484
31.41666667 0.02443
31.50000000 0.01391
31.58333333 0.00337
31.66666667 -0.00711
31.75000000 -0.01743
31.83333333 -0.02751
31.91666667 -0.03837
32.00000000 -0.04992
32.08333333 -0.06094
32.16666667 -0.07136
32.25000000 -0.08151
32.33333333 -0.09130
32.41666667 -0.10025
32.50000000 -0.10827
32.58333333 -0.11532
32.66666667 -0.12155
32.75000000 -0.12692
32.83333333 -0.13118
32.91666667 -0.13443
33.00000000 -0.13665
33.08333333 -0.13772
33.16666667 -0.13771
33.25000000 -0.13663
33.33333333 -0.13443
33.41666667 -0.13112
33.50000000 -0.12675
33.58333333 -0.12137
33.66666667 -0.11502
33.75000000 -0.10777
33.83333333 -0.09968
33.91666667 -0.09090
34.00000000 -0.08150
34.08333333 -0.07151
34.16666667 -0.06101
34.25000000 -0.05015
34.33333333 -0.03896
34.41666667 -0.02832
34.50000000 -0.01835
34.58333333 -0.00831
34.66666667 0.00170
34.75000000 0.01161
34.83333333 0.02122
34.91666667 0.03045
35.00000000 0.03845
35.08333333 0.04480
35.16666667 0.05035
35.25000000 0.05544
35.33333333 0.06001
35.41666667 0.06404
35.50000000 0.06686
35.58333333 0.06784
35.66666667 0.06888
35.75000000 0.06934
35.83333333 0.06861
35.91666667 0.06797
36.00000000 0.06676
36.08333333 0.06436
36.16666667 0.05977
36.25000000 0.05369
36.33333333 0.04825
36.41666667 0.04413
36.50000000 0.04034
36.58333333 0.03685
36.66666667 0.03369
36.75000000 0.03028
36.83333333 0.02665
36.91666667 0.02283
37.00000000 0.01991
37.08333333 0.01793
37.16666667 0.01581
37.25000000 0.01358
37.33333333 0.01020
37.41666667 0.00569
37.50000000 0.00118
37.58333333 -0.00331
37.66666667 -0.00836
37.75000000 -0.01457
37.83333333 -0.02121
37.91666667 -0.02761
38.00000000 -0.03372
38.08333333 -0.03950
38.16666667 -0.04489
38.25000000 -0.04986
38.33333333 -0.05437
38.41666667 -0.05838
38.50000000 -0.06313
38.58333333 -0.06832
38.66666667 -0.07165
38.75000000 -0.07333
38.83333333 -0.07438
38.91666667 -0.07480
39.00000000 -0.07459
39.08333333 -0.07376
39.16666667 -0.07168
39.25000000 -0.06901
39.33333333 -0.06579
39.41666667 -0.06080
39.50000000 -0.05473
39.58333333 -0.04720
39.66666667 -0.03828
39.75000000 -0.02818
39.83333333 -0.01700
39.91666667 -0.00574
40.00000000 0.00549
40.08333333 0.01662
40.16666667 0.02751
40.25000000 0.03805
40.33333333 0.04815
40.41666667 0.05775
40.50000000 0.06677
40.58333333 0.07517
40.66666667 0.08289
40.75000000 0.09021
40.83333333 0.09702
40.91666667 0.10259
41.00000000 0.10691
41.08333333 0.11030
41.16666667 0.11274
41.25000000 0.11422
41.33333333 0.11475
41.41666667 0.11475
41.50000000 0.11428
41.58333333 0.11292
41.66666667 0.11071
41.75000000 0.10767
41.83333333 0.10376
41.91666667 0.09855
42.00000000 0.09215
42.08333333 0.08507
42.16666667 0.07735
42.25000000 0.06912
42.33333333 0.06044
42.41666667 0.05194
42.50000000 0.04307
42.58333333 0.03342
42.66666667 0.02358
42.75000000 0.01355
42.83333333 0.00349
42.91666667 -0.00650
43.00000000 -0.01640
43.08333333 -0.02614
43.16666667 -0.03557
43.25000000 -0.04462
43.33333333 -0.05394
43.41666667 -0.06273
43.50000000 -0.07092
43.58333333 -0.07918
43.66666667 -0.08670
43.75000000 -0.09343
43.83333333 -0.09932
43.91666667 -0.10432
44.00000000 -0.10841
44.08333333 -0.11156
44.16666667 -0.11375
44.25000000 -0.11424
44.33333333 -0.11304
44.41666667 -0.11038
44.50000000 -0.10618
44.58333333 -0.10100
44.66666667 -0.09502
44.75000000 -0.08814
44.83333333 -0.08042
44.91666667 -0.07134
45.00000000 -0.06061
45.08333333 -0.04908
45.16666667 -0.03724
45.25000000 -0.02521
45.33333333 -0.01307
45.41666667 -0.00056
45.50000000 0.01222
45.58333333 0.02532
45.66666667 0.03864
45.75000000 0.05173
45.83333333 0.06449
45.91666667 0.07660
46.00000000 0.08865
46.08333333 0.10054
46.16666667 0.11079
46.25000000 0.11912
46.33333333 0.12615
46.41666667 0.13207
46.50000000 0.13684
46.58333333 0.14042
46.66666667 0.14279
46.75000000 0.14362
46.83333333 0.14291
46.91666667 0.14043
47.00000000 0.13680
47.08333333 0.13265
47.16666667 0.12743
47.25000000 0.12061
47.33333333 0.11226
47.41666667 0.10364
47.50000000 0.09481
47.58333333 0.08625
47.66666667 0.07801
47.75000000 0.06823
47.83333333 0.05797
47.91666667 0.04846
48.00000000 0.03881
48.08333333 0.02892
48.16666667 0.01888
48.25000000 0.00877
48.33333333 -0.00131
48.41666667 -0.01129
48.50000000 -0.02033
48.58333333 -0.02835
48.66666667 -0.03682
48.75000000 -0.04491
48.83333333 -0.05178
48.91666667 -0.05814
49.00000000 -0.06393
49.08333333 -0.06863
49.16666667 -0.07221
49.25000000 -0.07516
49.33333333 -0.07746
49.41666667 -0.07909
49.50000000 -0.07996
49.58333333 -0.08007
49.66666667 -0.07960
49.75000000 -0.07855
49.83333333 -0.07733
49.91666667 -0.07594
50.00000000 -0.07394
50.08333333 -0.07133
50.16666667 -0.06816
50.25000000 -0.06444
50.33333333 -0.05975
50.41666667 -0.05414
50.50000000 -0.04804
50.58333333 -0.04159
50.66666667 -0.03494
50.75000000 -0.02807
50.83333333 -0.02102
50.91666667 -0.01377
51.00000000 -0.00639
51.08333333 0.00098
51.16666667 0.00838
51.25000000 0.01575
51.33333333 0.02292
51.41666667 0.02972
51.50000000 0.03611
51.58333333 0.04206
51.66666667 0.04751
51.75000000 0.05205
51.83333333 0.05564
51.91666667 0.05873
52.00000000 0.06131
52.08333333 0.06335
52.16666667 0.06484
52.25000000 0.06578
52.33333333 0.06617
52.41666667 0.06599
52.50000000 0.06527
52.58333333 0.06401
52.66666667 0.06223
52.75000000 0.05923
52.83333333 0.05505
52.91666667 0.05044
53.00000000 0.04546
53.08333333 0.04004
53.16666667 0.03434
53.25000000 0.02840
53.33333333 0.02218
53.41666667 0.01502
53.50000000 0.00699
53.58333333 -0.00102
53.66666667 -0.00929
53.75000000 -0.01773
53.83333333 -0.02595
53.91666667 -0.03388
54.00000000 -0.04204
54.08333333 -0.05037
54.16666667 -0.05819
54.25000000 -0.06546
54.33333333 -0.07250
54.41666667 -0.07926
54.50000000 -0.08530
54.58333333 -0.09057
54.66666667 -0.09532
54.75000000 -0.09950
54.83333333 -0.10329
54.91666667 -0.10668
55.00000000 -0.10931
55.08333333 -0.11117
55.16666667 -0.11268
55.25000000 -0.11383
55.33333333 -0.11408
55.41666667 -0.11343
55.50000000 -0.11189
55.58333333 -0.10943
55.66666667 -0.10604
55.75000000 -0.10272
55.83333333 -0.09968
55.91666667 -0.09603
56.00000000 -0.09267
56.08333333 -0.08964
56.16666667 -0.08589
56.25000000 -0.08146
56.33333333 -0.07639
56.41666667 -0.07073
56.50000000 -0.06453
56.58333333 -0.05846
56.66666667 -0.05256
56.75000000 -0.04628
56.83333333 -0.04032
56.91666667 -0.03473
57.00000000 -0.02890
57.08333333 -0.02327
57.16666667 -0.01789
57.25000000 -0.01240
57.33333333 -0.00687
57.41666667 -0.00132
57.50000000 0.00418
57.58333333 0.00874
57.66666667 0.01231
57.75000000 0.01575
57.83333333 0.01903
57.91666667 0.02212
58.00000000 0.02500
58.08333333 0.02764
58.16666667 0.03003
58.25000000 0.03113
58.33333333 0.03096
58.41666667 0.03053
58.50000000 0.02985
58.58333333 0.02887
58.66666667 0.02761
58.75000000 0.02547
58.83333333 0.02247
58.91666667 0.01931
59.00000000 0.01615
59.08333333 0.01288
59.16666667 0.00941
59.25000000 0.00589
59.33333333 0.00235
59.41666667 -0.00104
59.50000000 -0.00440
59.58333333 -0.00781
59.66666667 -0.01164
59.75000000 -0.01583
59.83333333 -0.01985
59.91666667 -0.02367
60.00000000 -0.02676
60.08333333 -0.02959
60.16666667 -0.03265
60.25000000 -0.03542
60.33333333 -0.03786
60.41666667 -0.03997
60.50000000 -0.04172
60.58333333 -0.04311
60.66666667 -0.04349
60.75000000 -0.04301
60.83333333 -0.04230
60.91666667 -0.04125
61.00000000 -0.03973
61.08333333 -0.03790
61.16666667 -0.03589
61.25000000 -0.03361
61.33333333 -0.03106
61.41666667 -0.02828
61.50000000 -0.02529
61.58333333 -0.02212
61.66666667 -0.01879
61.75000000 -0.01533
61.83333333 -0.01112
61.91666667 -0.00619
62.00000000 -0.00125
62.08333333 0.00365
62.16666667 0.00841
62.25000000 0.01221
62.33333333 0.01529
62.41666667 0.01839
62.50000000 0.02130
62.58333333 0.02402
62.66666667 0.02650
62.75000000 0.02825
62.83333333 0.02923
62.91666667 0.03014
63.00000000 0.03110
63.08333333 0.03235
63.16666667 0.03426
63.25000000 0.03640
63.33333333 0.03889
63.41666667 0.04178
63.50000000 0.04436
63.58333333 0.04737
63.66666667 0.05106
63.75000000 0.05455
63.83333333 0.05855
63.91666667 0.06303
64.00000000 0.06694
64.08333333 0.07026
64.16666667 0.07296
64.25000000 0.07441
64.33333333 0.07523
64.41666667 0.07603
64.50000000 0.07619
64.58333333 0.07510
64.66666667 0.07278
64.75000000 0.06948
64.83333333 0.06525
64.91666667 0.06051
65.00000000 0.05531
65.08333333 0.04944
65.16666667 0.04295
65.25000000 0.03617
65.33333333 0.02914
65.41666667 0.02277
65.50000000 0.01752
65.58333333 0.01227
65.66666667 0.00696
65.75000000 0.00195
65.83333333 -0.00272
65.91666667 -0.00660
66.00000000 -0.00926
66.08333333 -0.01043
66.16666667 -0.01151
66.25000000 -0.01315
66.33333333 -0.01466
66.41666667 -0.01603
66.50000000 -0.01726
66.58333333 -0.01833
66.66666667 -0.01911
66.75000000 -0.01901
66.83333333 -0.01817
66.91666667 -0.01718
67.00000000 -0.01605
67.08333333 -0.01481
67.16666667 -0.01345
67.25000000 -0.01199
67.33333333 -0.01050
67.41666667 -0.00898
67.50000000 -0.00741
67.58333333 -0.00579
67.66666667 -0.00414
67.75000000 -0.00246
67.83333333 -0.00086
67.91666667 0.00066
68.00000000 0.00216
68.08333333 0.00363
68.16666667 0.00505
68.25000000 0.00642
68.33333333 0.00773
68.41666667 0.00896
68.50000000 0.01010
68.58333333 0.01191
68.66666667 0.01442
68.75000000 0.01682
68.83333333 0.01907
68.91666667 0.02113
69.00000000 0.02300
69.08333333 0.02466
69.16666667 0.02610
69.25000000 0.02731
69.33333333 0.02824
69.41666667 0.02935
69.50000000 0.03020
69.58333333 0.03033
69.66666667 0.03016
69.75000000 0.03014
69.83333333 0.03037
69.91666667 0.03043
70.00000000 0.03023
70.08333333 0.02978
70.16666667 0.02909
70.25000000 0.02825
70.33333333 0.02786
70.41666667 0.02802
70.50000000 0.02815
70.58333333 0.02804
70.66666667 0.02770
70.75000000 0.02750
70.83333333 0.02744
70.91666667 0.02743
71.00000000 0.02749
71.08333333 0.02732
71.16666667 0.02692
71.25000000 0.02668
71.33333333 0.02661
71.41666667 0.02632
71.50000000 0.02607
71.58333333 0.02588
71.66666667 0.02547
71.75000000 0.02485
71.83333333 0.02403
71.91666667 0.02302
72.00000000 0.02183
72.08333333 0.01981
72.16666667 0.01700
72.25000000 0.01407
72.33333333 0.01106
72.41666667 0.00836
72.50000000 0.00600
72.58333333 0.00361
72.66666667 0.00121
72.75000000 -0.00117
72.83333333 -0.00353
72.91666667 -0.00583
73.00000000 -0.00806
73.08333333 -0.01021
73.16666667 -0.01225
73.25000000 -0.01390
73.33333333 -0.01516
73.41666667 -0.01578
73.50000000 -0.01577
73.58333333 -0.01562
73.66666667 -0.01535
73.75000000 -0.01495
73.83333333 -0.01519
73.91666667 -0.01607
74.00000000 -0.01681
74.08333333 -0.01740
74.16666667 -0.01783
74.25000000 -0.01812
74.33333333 -0.01825
74.41666667 -0.01823
74.50000000 -0.01806
74.58333333 -0.01811
74.66666667 -0.01839
74.75000000 -0.01852
74.83333333 -0.01887
74.91666667 -0.01945
75.00000000 -0.01986
75.08333333 -0.01972
75.16666667 -0.01902
75.25000000 -0.01857
75.33333333 -0.01834
75.41666667 -0.01797
75.50000000 -0.01772
75.58333333 -0.01761
75.66666667 -0.01783
75.75000000 -0.01855
75.83333333 -0.01928
75.91666667 -0.01984
76.00000000 -0.02036
76.08333333 -0.02083
76.16666667 -0.02112
76.25000000 -0.02181
76.33333333 -0.02287
76.41666667 -0.02373
76.50000000 -0.02442
76.58333333 -0.02494
76.66666667 -0.02521
76.75000000 -0.02523
76.83333333 -0.02504
76.91666667 -0.02464
77.00000000 -0.02492
77.08333333 -0.02587
77.16666667 -0.02659
77.25000000 -0.02709
77.33333333 -0.02735
77.41666667 -0.02827
77.50000000 -0.02984
77.58333333 -0.03114
77.66666667 -0.03254
77.75000000 -0.03403
